# SAXS profile: number of points = 501, q_min = 0, q_max = 0.5, delta_q = 0.001
#    q    intensity    error
0.00000000 4120883.25000000 865.38549805
0.00100000 4120502.25000000 1359.76574707
0.00200000 4119331.75000000 2039.06933594
0.00300000 4117367.00000000 2964.50415039
0.00400000 4114646.50000000 3703.18188477
0.00500000 4111122.75000000 4440.01269531
0.00600000 4106820.25000000 4312.16113281
0.00700000 4101754.50000000 4922.10546875
0.00800000 4095924.00000000 6635.39697266
0.00900000 4089317.50000000 7974.16943359
0.01000000 4081939.75000000 8082.24121094
0.01100000 4073810.75000000 8066.14599609
0.01200000 4064912.75000000 11889.87011719
0.01300000 4055274.75000000 12774.11523438
0.01400000 4044896.25000000 11831.32226562
0.01500000 4033758.75000000 13553.42968750
0.01600000 4021889.75000000 11281.40136719
0.01700000 4009293.00000000 11907.60058594
0.01800000 3995967.50000000 13666.20996094
0.01900000 3981943.00000000 11945.83007812
0.02000000 3967189.25000000 22493.96484375
0.02100000 3951750.50000000 18257.08789062
0.02200000 3935617.75000000 13577.88183594
0.02300000 3918798.75000000 18339.98046875
0.02400000 3901317.00000000 19018.91992188
0.02500000 3883165.25000000 21202.08203125
0.02600000 3864353.50000000 21910.88476562
0.02700000 3844899.25000000 20993.15039062
0.02800000 3824813.25000000 18301.73242188
0.02900000 3804096.00000000 20542.11914062
0.03000000 3782763.50000000 19348.83593750
0.03100000 3760834.75000000 25272.81054688
0.03200000 3738305.75000000 20355.07617188
0.03300000 3715200.75000000 20842.27539062
0.03400000 3691517.00000000 19380.46484375
0.03500000 3667306.50000000 19803.45507812
0.03600000 3642529.50000000 22237.64453125
0.03700000 3617236.75000000 22680.07421875
0.03800000 3591435.00000000 25211.87500000
0.03900000 3565108.25000000 25668.77929688
0.04000000 3538289.25000000 34816.76953125
0.04100000 3511002.00000000 26543.17578125
0.04200000 3483241.50000000 22466.91015625
0.04300000 3455019.00000000 22803.12695312
0.04400000 3426378.25000000 27753.66601562
0.04500000 3397307.75000000 30473.85156250
0.04600000 3367833.75000000 35614.84375000
0.04700000 3337959.00000000 31243.29687500
0.04800000 3307709.75000000 29174.00000000
0.04900000 3277103.00000000 24578.27343750
0.05000000 3246139.75000000 37249.45312500
0.05100000 3214835.25000000 45136.28906250
0.05200000 3183219.25000000 25306.59375000
0.05300000 3151296.50000000 25525.50390625
0.05400000 3119071.25000000 28305.57226562
0.05500000 3086567.50000000 36298.03515625
0.05600000 3053812.75000000 28721.10937500
0.05700000 3020805.50000000 31537.21093750
0.05800000 2987568.00000000 39659.96484375
0.05900000 2954110.25000000 31904.39257812
0.06000000 2920463.50000000 32066.69140625
0.06100000 2886612.00000000 40268.24218750
0.06200000 2852605.25000000 43131.39453125
0.06300000 2818444.25000000 27057.06445312
0.06400000 2784131.50000000 27145.28320312
0.06500001 2749686.50000000 35388.46875000
0.06600000 2715126.75000000 30015.72656250
0.06700000 2680480.00000000 32809.07421875
0.06800000 2645743.25000000 35598.47656250
0.06900001 2610930.50000000 49346.58984375
0.07000000 2576067.25000000 30178.62890625
0.07100000 2541166.25000000 30189.05664062
0.07200000 2506231.25000000 27443.23437500
0.07300001 2471285.75000000 35660.65625000
0.07400000 2436347.50000000 43854.25390625
0.07500000 2401410.25000000 43801.72656250
0.07600001 2366508.75000000 35533.13281250
0.07700001 2331654.50000000 46376.61328125
0.07800000 2296830.75000000 29939.18945312
0.07900000 2262090.25000000 29859.59179688
0.08000001 2227430.50000000 29769.61132812
0.08100000 2192846.00000000 40458.00781250
0.08200000 2158372.25000000 32246.08203125
0.08300000 2124006.25000000 50848.71093750
0.08400001 2089764.50000000 31973.39843750
0.08500000 2055672.25000000 26518.17187500
0.08600000 2021723.50000000 36936.89062500
0.08700000 1987933.87500000 28864.80078125
0.08800001 1954311.12500000 26090.05468750
0.08900000 1920876.12500000 31118.19335938
0.09000000 1887628.12500000 38649.18750000
0.09100001 1854589.62500000 25593.33789062
0.09200001 1821752.75000000 30496.14257812
0.09300000 1789142.87500000 30272.29882812
0.09400000 1756755.50000000 30040.51953125
0.09500001 1724605.37500000 37251.48046875
0.09600000 1692707.25000000 34480.44531250
0.09700000 1661071.50000000 31743.07812500
0.09800000 1629687.75000000 24200.86523438
0.09900001 1598584.25000000 38366.02343750
0.10000000 1567759.00000000 26126.70507812
0.10100000 1537209.00000000 35278.94921875
0.10200001 1506961.87500000 41908.61328125
0.10300001 1477005.75000000 32257.80859375
0.10400000 1447358.12500000 25075.48046875
0.10500000 1418023.12500000 27055.88281250
0.10600001 1389003.87500000 35669.62109375
0.10700001 1360314.37500000 35259.35156250
0.10800000 1331946.00000000 26132.78125000
0.10900000 1303912.37500000 27968.92187500
0.11000001 1276216.62500000 27623.71093750
0.11100001 1248860.25000000 20980.85351562
0.11200000 1221854.75000000 24852.52734375
0.11300001 1195198.25000000 22481.67968750
0.11400001 1168883.50000000 26212.21484375
0.11500000 1142939.12500000 21875.85546875
0.11600000 1117348.87500000 23531.36718750
0.11700001 1092126.00000000 21263.69335938
0.11800001 1067259.25000000 20955.63671875
0.11900000 1042759.06250000 20646.63085938
0.12000000 1018630.68750000 22185.77734375
0.12100001 994876.68750000 20026.86914062
0.12200001 971484.68750000 25093.45117188
0.12300000 948468.81250000 28226.43359375
0.12400001 925826.75000000 22567.02734375
0.12500000 903550.37500000 22200.23242188
0.12600000 881661.75000000 23513.91992188
0.12700000 860138.06250000 18166.11718750
0.12800001 838988.43750000 19481.31250000
0.12900001 818213.62500000 15955.16699219
0.13000001 797814.62500000 20380.17578125
0.13100001 777779.37500000 16940.03710938
0.13200000 758118.56250000 19661.80468750
0.13300000 738831.18750000 19305.65820312
0.13400000 719912.12500000 14578.22070312
0.13500001 701355.31250000 21461.47265625
0.13600001 683166.87500000 21058.61914062
0.13700001 665338.81250000 16527.01757812
0.13800001 647873.18750000 13508.15722656
0.13900001 630765.93750000 25167.56250000
0.14000000 614014.87500000 15583.69726562
0.14100000 597619.00000000 15275.14160156
0.14200000 581567.68750000 19959.40429688
0.14300001 565868.18750000 14667.30371094
0.14400001 550506.56250000 13170.87011719
0.14500001 535492.43750000 12900.01367188
0.14600001 520814.93750000 18374.35351562
0.14700000 506469.43750000 12367.98339844
0.14800000 492454.09375000 17610.15820312
0.14900000 478767.34375000 14003.94531250
0.15000001 465400.21875000 12649.57812500
0.15100001 452354.28125000 13407.78125000
0.15200001 439625.53125000 12107.28808594
0.15300001 427205.81250000 14802.68261719
0.15400001 415089.81250000 15441.34277344
0.15500000 403276.18750000 10380.32910156
0.15600000 391760.18750000 11071.14355469
0.15700001 380542.03125000 12626.38476562
0.15800001 369606.06250000 8815.10546875
0.15900001 358958.84375000 9476.51367188
0.16000001 348585.21875000 10102.00000000
0.16100001 338493.03125000 10692.99609375
0.16200000 328669.18750000 10446.75000000
0.16300000 319106.81250000 8635.03027344
0.16400000 309810.12500000 7667.80078125
0.16500001 300765.34375000 10484.68066406
0.16600001 291973.84375000 7313.94531250
0.16700001 283425.81250000 14998.89453125
0.16800001 275119.81250000 10461.43164062
0.16900001 267052.09375000 8852.77734375
0.17000000 259215.48437500 7978.65283203
0.17100000 251605.51562500 8438.84960938
0.17200001 244216.28125000 8238.63671875
0.17300001 237046.42187500 9280.36816406
0.17400001 230087.23437500 6039.79003906
0.17500001 223336.39062500 7664.90527344
0.17600001 216786.59375000 7482.38964844
0.17700000 210438.54687500 6742.45117188
0.17800000 204280.09375000 6033.41259766
0.17900001 198312.43750000 7496.21044922
0.18000001 192528.12500000 5749.85253906
0.18100001 186925.64062500 7654.60546875
0.18200001 181494.95312500 4982.03662109
0.18300001 176237.76562500 6323.41162109
0.18400002 171145.15625000 8073.77343750
0.18500000 166214.78125000 7419.82812500
0.18600000 161442.53125000 4981.30957031
0.18700001 156823.18750000 5749.13818359
0.18800001 152350.92187500 4319.14892578
0.18900001 148027.78125000 4640.67138672
0.19000001 143840.37500000 4945.23242188
0.19100001 139795.87500000 6039.18212891
0.19200000 135879.40625000 5900.56347656
0.19300000 132094.67187500 4228.35058594
0.19400001 128434.63281250 3756.71313477
0.19500001 124896.95312500 3671.97045898
0.19600001 121475.75781250 4666.49169922
0.19700001 118170.34375000 3860.62524414
0.19800001 114974.50000000 3431.98901367
0.19900002 111887.92968750 4027.96582031
0.20000000 108904.03906250 3611.80249023
0.20100001 106021.64062500 3533.70141602
0.20200001 103236.92968750 3772.27758789
0.20300001 100547.20312500 3692.09350586
0.20400001 97948.78125000  3313.11767578
0.20500001 95440.87500000  2949.12329102
0.20600002 93015.40625000  4332.19287109
0.20700002 90674.39843750  4809.37060547
0.20800000 88413.61718750  3603.29711914
0.20900001 86232.86718750  2716.33544922
0.21000001 84123.89843750  3727.53002930
0.21100001 82089.35937500  2871.48583984
0.21200001 80125.61718750  3072.01635742
0.21300001 78226.80468750  3515.51293945
0.21400002 76397.60156250  3202.96972656
0.21500000 74630.47656250  2659.83032227
0.21600001 72923.61718750  3323.12939453
0.21700001 71277.28906250  3029.99755859
0.21800001 69687.84375000  2747.09497070
0.21900001 68152.68750000  2473.94262695
0.22000001 66672.09375000  2210.17993164
0.22100002 65244.64843750  2607.17626953
0.22200002 63866.98437500  2563.62084961
0.22300000 62537.11718750  2101.24707031
0.22400001 61253.23437500  2894.21533203
0.22500001 60017.89062500  2441.52783203
0.22600001 58823.49218750  2403.52807617
0.22700001 57674.09375000  2366.94482422
0.22800002 56565.37890625  2137.32299805
0.22900002 55495.82421875  2106.06665039
0.23000000 54466.40625000  2453.43920898
0.23100001 53475.30468750  2419.22290039
0.23200001 52518.85156250  2019.08728027
0.23300001 51599.04687500  2897.80249023
0.23400001 50714.11328125  1966.43981934
0.23500001 49860.84765625  1765.07409668
0.23600002 49041.18359375  2092.09692383
0.23700002 48253.81640625  2928.52441406
0.23800001 47497.12109375  2383.88061523
0.23900001 46769.60546875  2525.55883789
0.24000001 46071.78125000  1832.04443359
0.24100001 45404.16406250  1977.80554199
0.24200001 44763.37500000  1957.95007324
0.24300002 44149.43750000  2262.21728516
0.24400002 43562.12890625  2401.36254883
0.24500000 43001.63671875  1745.43652344
0.24600001 42465.85937500  1888.03210449
0.24700001 41955.77734375  1716.83044434
0.24800001 41469.43750000  1703.77197266
0.24900001 41006.37890625  1845.28710938
0.25000000 40566.95312500  1680.08032227
0.25100002 40149.98437500  2428.27124023
0.25200000 39757.40625000  1810.55236816
0.25300002 39385.69140625  2250.89233398
0.25400001 39035.55859375  1642.42114258
0.25500003 38706.63671875  1634.96850586
0.25600001 38398.90234375  2220.41674805
0.25700000 38111.05859375  1769.87756348
0.25800002 37844.23437500  1911.32312012
0.25900000 37596.76171875  1612.90112305
0.26000002 37369.72265625  1755.62976074
0.26100001 37160.41796875  1460.40441895
0.26200002 36970.94531250  1750.20471191
0.26300001 36798.65625000  1602.94958496
0.26400000 36645.74218750  1748.00195312
0.26500002 36510.25781250  2330.81494141
0.26600000 36392.42187500  1457.51647949
0.26700002 36292.31640625  1458.95117188
0.26800001 36209.36718750  1461.04797363
0.26900002 36142.50000000  1463.77136230
0.27000001 36093.16406250  1760.62463379
0.27100003 36058.35937500  1765.41748047
0.27200001 36042.32031250  2213.89965820
0.27300000 36038.87890625  1481.19787598
0.27400002 36050.41406250  2081.91162109
0.27500001 36078.99609375  1493.67041016
0.27600002 36119.94140625  2101.09716797
0.27700001 36176.72656250  1508.56958008
0.27800003 36247.34375000  1668.64660645
0.27900001 36331.29687500  1831.09741211
0.28000000 36429.11718750  1842.58471680
0.28100002 36538.93359375  1854.71643066
0.28200001 36662.72265625  2023.23242188
0.28300002 36798.38281250  2351.41674805
0.28400001 36945.28515625  2053.23437500
0.28500003 37105.69531250  1910.20141602
0.28600001 37275.44531250  1765.17883301
0.28700000 37456.56250000  1618.12353516
0.28800002 37648.87890625  1795.28686523
0.28900000 37851.59375000  2634.47094727
0.29000002 38063.61328125  1827.62451172
0.29100001 38286.15234375  1676.93347168
0.29200003 38517.19531250  1862.11401367
0.29300001 38756.98046875  2221.93774414
0.29400000 39004.92187500  1725.96777344
0.29500002 39261.60156250  2091.85815430
0.29600000 39525.35546875  2289.11108398
0.29700002 39795.26953125  1778.84863281
0.29800001 40073.61718750  1977.03198242
0.29900002 40357.71484375  1816.09729004
0.30000001 40648.10156250  2018.78808594
0.30100003 40943.75000000  2411.17773438
0.30200002 41244.42187500  2436.92675781
0.30300000 41550.25000000  3220.97534180
0.30400002 41860.68750000  2872.68994141
0.30500001 42174.33203125  2129.38208008
0.30600002 42491.74218750  2543.76831055
0.30700001 42812.58203125  1977.94140625
0.30800003 43136.54687500  2599.19287109
0.30900002 43462.19140625  2223.09130859
0.31000000 43789.88281250  3677.03637695
0.31100002 44119.14843750  2684.20922852
0.31200001 44449.73828125  2086.91528320
0.31300002 44781.03125000  2109.18676758
0.31400001 45112.68359375  2557.88916016
0.31500003 45443.48437500  2369.42358398
0.31600001 45775.05859375  2176.60424805
0.31700000 46105.89062500  2419.17602539
0.31800002 46434.16406250  2221.87500000
0.31900001 46762.28906250  2469.04882812
0.32000002 47088.10937500  3400.93896484
0.32100001 47411.42578125  3892.95239258
0.32200003 47733.09375000  3469.00292969
0.32300001 48050.23828125  4203.43505859
0.32400000 48365.14843750  2357.80102539
0.32500002 48676.48828125  2856.33642578
0.32600001 48982.62890625  2402.59790039
0.32700002 49285.85156250  3879.78247070
0.32800001 49584.48828125  2691.69409180
0.32900003 49877.12890625  2715.80981445
0.33000001 50166.30468750  3237.98437500
0.33100003 50448.23437500  3517.25122070
0.33200002 50726.50390625  3547.30468750
0.33300000 50998.03125000  3066.00170898
0.33400002 51263.55859375  3348.79223633
0.33500001 51521.85156250  3375.71191406
0.33600003 51774.80859375  3402.38183594
0.33700001 52019.49609375  2637.38842773
0.33800003 52258.71484375  3720.29833984
0.33900002 52489.80468750  2944.67822266
0.34000000 52712.48828125  3774.74121094
0.34100002 52928.71875000  3529.81640625
0.34200001 53137.96484375  3827.52758789
0.34300002 53337.36328125  2752.20825195
0.34400001 53530.95703125  3047.24975586
0.34500003 53715.65234375  2787.84252930
0.34600002 53892.27343750  3927.13012695
0.34700000 54060.28515625  4232.92041016
0.34800002 54219.09375000  3689.88061523
0.34900001 54370.83593750  2854.46899414
0.35000002 54513.62109375  3157.15649414
0.35100001 54647.43359375  2885.38452148
0.35200003 54772.03125000  4060.25097656
0.35300002 54889.15234375  3206.07543945
0.35400000 54996.11328125  3221.39746094
0.35500002 55095.15234375  3236.28930664
0.35600001 55185.44531250  3250.69873047
0.35700002 55266.89453125  4451.74853516
0.35800001 55339.90625000  3576.06494141
0.35900003 55403.94140625  3590.17578125
0.36000001 55459.78906250  3603.77734375
0.36100003 55506.29687500  3616.79052734
0.36200002 55545.28515625  3024.44091797
0.36300001 55574.99218750  3641.27343750
0.36400002 55596.50781250  3652.69067383
0.36500001 55608.57421875  3358.20190430
0.36600003 55614.26171875  4592.34814453
0.36700001 55610.74218750  3683.65576172
0.36800003 55599.68359375  4308.41992188
0.36900002 55581.82812500  3701.75000000
0.37000000 55554.00781250  3709.89672852
0.37100002 55518.84765625  3407.74707031
0.37200001 55477.25390625  4035.13818359
0.37300003 55427.27343750  4042.31127930
0.37400001 55371.32031250  4360.49169922
0.37500003 55308.11328125  4367.12890625
0.37600002 55236.67578125  4373.08789062
0.37700000 55159.08984375  3440.27246094
0.37800002 55075.96093750  5322.81640625
0.37900001 54985.10156250  3447.56591797
0.38000003 54888.67187500  3764.26538086
0.38100001 54786.55859375  3767.12377930
0.38200003 54677.16796875  4083.56469727
0.38300002 54562.82421875  3457.10058594
0.38400000 54443.59375000  4401.76464844
0.38500002 54317.76562500  5031.99804688
0.38600001 54188.50781250  4089.33593750
0.38700002 54052.10937500  4404.16601562
0.38800001 53912.74218750  4404.13183594
0.38900003 53767.83593750  3459.96044922
0.39000002 53619.01562500  3144.75537109
0.39100003 53466.14453125  4086.95239258
0.39200002 53310.10156250  3771.15673828
0.39300001 53148.12890625  4397.47607422
0.39400002 52985.36328125  3453.32128906
0.39500001 52817.82421875  3764.85449219
0.39600003 52645.77343750  3135.05590820
0.39700001 52472.77343750  3759.14965820
0.39800003 52296.13671875  3755.90893555
0.39900002 52116.81250000  4065.11157227
0.40000001 51935.11328125  3748.67651367
0.40100002 51750.75390625  4056.74194336
0.40200001 51565.41406250  3428.84228516
0.40300003 51376.81640625  3736.12231445
0.40400001 51187.21093750  3731.54785156
0.40500003 50996.07421875  3105.66113281
0.40600002 50804.59765625  4342.26904297
0.40700001 50609.85156250  4645.98437500
0.40800002 50415.10156250  4330.15332031
0.40900001 50219.60546875  5868.16113281
0.41000003 50023.57421875  3700.74414062
0.41100001 49826.37109375  3695.12377930
0.41200003 49628.35937500  3689.37255859
0.41300002 49430.72265625  3683.57763672
0.41400003 49233.09375000  3984.18847656
0.41500002 49035.46875000  3365.79467773
0.41600001 48836.81640625  3054.74291992
0.41700003 48639.46875000  3964.60327148
0.41800001 48442.50781250  3957.99511719
0.41900003 48244.51953125  4559.10742188
0.42000002 48049.12890625  3337.73291016
0.42100003 47853.11328125  3332.01245117
0.42200002 47658.69140625  3023.94409180
0.42300001 47464.68750000  4528.13134766
0.42400002 47270.34375000  3314.83300781
0.42500001 47078.52734375  3609.98168945
0.42600003 46887.25000000  4805.00585938
0.42700002 46697.87890625  3597.60473633
0.42800003 46509.04296875  2992.85717773
0.42900002 46322.00390625  3286.54638672
0.43000001 46136.01171875  4175.77050781
0.43100002 45951.11328125  3870.92211914
0.43200001 45767.99609375  3864.42089844
0.43300003 45586.45312500  3857.98168945
0.43400002 45406.38281250  4147.87304688
0.43500003 45227.54687500  3549.45825195
0.43600002 45052.22265625  2953.17333984
0.43700001 44876.47265625  3243.22265625
0.43800002 44701.85546875  3237.97900391
0.43900001 44531.14453125  3526.86669922
0.44000003 44360.84765625  3227.91723633
0.44100001 44192.56250000  3808.95703125
0.44200003 44026.48046875  2925.55981445
0.44300002 43861.06640625  3505.37646484
0.44400004 43698.11328125  3791.90405273
0.44500002 43535.99218750  4368.83691406
0.44600001 43376.55078125  3490.07739258
0.44700003 43218.69140625  4356.44433594
0.44800001 43062.43750000  2900.25537109
0.44900003 42907.61718750  3475.51733398
0.45000002 42755.94921875  4338.66015625
0.45100003 42603.67187500  3466.23510742
0.45200002 42454.38281250  4615.64062500
0.45300001 42306.76953125  4321.63671875
0.45400003 42160.09765625  4316.14013672
0.45500001 42014.95312500  4885.49902344
0.45600003 41872.12500000  4592.53515625
0.45700002 41730.25000000  3726.92871094
0.45800003 41590.20703125  3149.83447266
0.45900002 41451.05859375  3432.14770508
0.46000001 41314.11718750  3713.93261719
0.46100003 41177.41796875  3995.03320312
0.46200001 41043.35156250  3135.50683594
0.46300003 40909.47265625  3416.75927734
0.46400002 40777.33593750  3981.90698242
0.46500003 40646.45312500  2841.18725586
0.46600002 40516.86718750  3405.84790039
0.46700001 40387.84765625  3402.27246094
0.46800002 40260.75000000  4531.75048828
0.46900001 40133.71093750  3678.25463867
0.47000003 40007.87500000  3109.21215820
0.47100002 39883.87500000  3388.53417969
0.47200003 39760.32031250  4231.49218750
0.47300002 39637.77343750  3381.89501953
0.47400004 39515.30468750  3378.55883789
0.47500002 39394.12109375  3375.28857422
0.47600001 39274.61328125  4777.16748047
0.47700003 39154.35156250  3930.31396484
